Position (mm) 	 Delay (ps) 	 X (V) 	 Y (V) 	 R (V) 	 theta (°)
10.9	7.2703e-11	-0.00462154	-0.00674251	0.00855452	-136.626
10.903	7.272301e-11	-0.00427058	0.00781256	0.00861937	106.512
10.906	7.274302e-11	0.00839239	0.000951771	0.00854307	-2.154
10.909	7.276303000000001e-11	-0.00109101	-0.0084458	0.00860411	-106.44
10.912	7.278304e-11	-0.00804716	0.00379182	0.00870901	147.318
10.915	7.280304999999999e-11	0.00547794	0.00631145	0.00868803	37.824
10.918	7.282306e-11	0.00490382	-0.00740054	0.00859839	-68.19
10.921	7.284306999999999e-11	-0.00826651	-0.00195505	0.00862318	-173.34
10.924	7.286307999999999e-11	-9.15532e-05	0.00864989	0.00871092	80.754
10.9275	7.2886425e-11	0.00848013	-0.00277521	0.00878721	-27.378
10.9305	7.2906435e-11	-0.00475314	-0.00681117	0.00865561	-136.254
10.9335	7.2926445e-11	-0.00540164	0.00722316	0.00870711	117.438
10.9365	7.2946455e-11	0.00805289	0.00243188	0.00853544	7.842
10.9395	7.2966465e-11	4.19619e-05	-0.00883108	0.00881964	-100.29
10.9425	7.2986475e-11	-0.00839239	0.00304605	0.00877959	150.978
10.9455	7.3006485e-11	0.00538447	0.00649264	0.00874907	39.588
10.9485	7.302649499999999e-11	-0.000104905	-0.00871664	0.00871283	-102.432
10.9515	7.304650499999999e-11	-0.0081082	0.00376131	0.00868803	147.642
10.9545	7.3066515e-11	0.00563052	0.00634959	0.00875288	39.684
10.9575	7.3086525e-11	0.00523189	-0.00758937	0.0088864	-64.314
10.9605	7.310653499999999e-11	-0.00807959	-0.00304605	0.00871283	-167.976
10.9635	7.3126545e-11	-0.00100137	0.00891501	0.00896269	84.606
10.9665	7.3146555e-11	0.00831038	-0.00334932	0.0087567	-30.99
10.9695	7.316656499999999e-11	-0.00490001	-0.00698856	0.00888258	-134.724
10.9725	7.3186575e-11	-0.00556758	0.00708202	0.00879484	119.856
10.976	7.320992e-11	0.00813681	0.00291063	0.00880629	12.72
10.979	7.322992999999999e-11	0.00113488	-0.00879675	0.00876623	-95.112
10.982	7.324994e-11	-0.00873381	0.00240518	0.00893599	157.794
10.985	7.326994999999999e-11	0.00429347	0.00758937	0.00896651	51.204
10.988	7.328995999999999e-11	0.00101281	-0.00905997	0.00903708	-97.176
10.991	7.330997e-11	-0.00865179	0.00283243	0.00894171	152.802
10.994	7.332998e-11	0.00511363	0.00702289	0.0089646	42.87
10.997	7.334998999999999e-11	0.00554469	-0.00741771	0.00907141	-64.128
11.0	7.337e-11	-0.00868994	-0.00228883	0.00916487	-174.816
11.003	7.339001e-11	-0.00019455	0.00919729	0.0091992	80.82
11.006	7.341002e-11	0.00898367	-0.00303461	0.00928122	-28.098
11.009	7.343003e-11	-0.00506595	-0.00749972	0.0092507	-135.06
11.012	7.345004e-11	-0.00604823	0.00773433	0.00949675	116.526
11.015	7.347005e-11	0.00863272	0.00252534	0.0091725	7.134
11.018	7.349006e-11	0.000219346	-0.00846678	0.00845915	-101.118
11.021	7.351007e-11	-0.00759318	0.00353242	0.00812727	145.35
11.024	7.353007999999999e-11	0.00522807	0.00592235	0.00819784	38.016
11.0275	7.3553425e-11	0.00413898	-0.00714496	0.00803953	-71.706
11.0305	7.3573435e-11	-0.0074673	0.00398639	0.00819212	141.504
11.0335	7.359344499999999e-11	0.0056496	0.00567248	0.00831991	36.318
11.0365	7.3613455e-11	0.0056515	-0.00800902	0.00956732	-65.196
11.0395	7.3633465e-11	-0.00817877	-0.00250627	0.00868803	-171.882
11.0425	7.3653475e-11	-7.05724e-05	0.00854498	0.00854117	81.582
11.0455	7.3673485e-11	0.00827795	-0.00288583	0.008627	-25.83
11.0485	7.3693495e-11	-0.00443843	-0.00707057	0.00857741	-133.782
11.0515	7.3713505e-11	-0.00532916	0.00704196	0.00850493	114.972
11.0545	7.373351500000001e-11	0.00810057	0.00236131	0.00860029	6.882
11.0575	7.375352499999999e-11	-0.00485042	-0.00675967	0.00860983	-134.916
11.0605	7.377353499999999e-11	-0.00515178	0.00708202	0.00856405	117.87
11.0635	7.3793545e-11	0.0078488	0.00265314	0.00838286	9.27
11.0665	7.381355499999999e-11	0.000316622	-0.00833708	0.00831801	-99.738
11.0695	7.383356499999999e-11	-0.00793654	0.00250818	0.0082112	153.456
11.0725	7.3853575e-11	0.00451663	0.00660518	0.00820166	46.548
11.076	7.387692e-11	0.00538638	-0.00627902	0.00799757	-59.946
11.079	7.389693e-11	-0.00730327	-0.00240327	0.00788122	-170.868
11.082	7.391694e-11	2.47956e-05	0.00775531	0.00776485	78.036
11.085	7.393695e-11	0.00755504	-0.00258066	0.00782591	-25.254
11.088	7.395695999999999e-11	-0.00377084	-0.00626758	0.00759318	-130.368
11.091	7.397697e-11	-0.00488666	0.00597957	0.00749782	119.334
11.094	7.399697999999999e-11	0.00672343	0.00197984	0.00719264	9.588
11.097	7.401698999999999e-11	-0.00400546	-0.00576213	0.00724033	-135.954
11.1	7.4037e-11	-0.00416377	0.00579074	0.00699428	114.984
11.103	7.405701e-11	0.00675586	0.00171853	0.00708583	4.662
11.106	7.407701999999999e-11	-6.8665e-05	-0.00701144	0.00704387	-103.656
11.109	7.409703e-11	-0.00650409	0.00306703	0.0069218	145.518
11.112	7.411704e-11	0.00476649	0.00487903	0.00703242	36.06
11.115	7.413704999999999e-11	0.0036812	-0.00608829	0.00694469	-67.362
11.118	7.415706e-11	-0.00660327	-0.00180054	0.00699046	-173.904
11.121	7.417707e-11	0.000297548	0.00695422	0.00700954	74.232
11.124	7.419708e-11	0.00652698	-0.00321008	0.00712016	-34.428
11.1275	7.4220425e-11	-0.0068455	-0.00138093	0.00703815	-178.404
11.1305	7.424043499999999e-11	0.000345232	0.00711825	0.00720409	73.818
11.1335	7.426044499999999e-11	0.00657657	-0.00311853	0.00711063	-35.418
11.1365	7.4280455e-11	-0.00473407	-0.00513652	0.00717738	-143.628
11.1395	7.4300465e-11	-0.00338937	0.0066624	0.0073109	105.624
11.1425	7.432047499999999e-11	0.00726131	0.000354769	0.00733379	-5.868
11.1455	7.4340485e-11	-0.00144959	-0.00716785	0.00736621	-112.752
11.1485	7.4360495e-11	-0.00636676	0.00396541	0.00740626	137.94
11.1515	7.4380505e-11	0.00563625	0.0043278	0.00737193	29.142
11.1545	7.4400515e-11	0.00271036	-0.00707629	0.00740626	-81.312
11.1575	7.4420525e-11	-0.00724795	-0.000450136	0.00726321	174.9
11.1605	7.4440535e-11	0.00156976	0.00710681	0.00737384	66.018
11.1635	7.4460545e-11	0.00640681	-0.00405505	0.00733188	-42.636
11.1665	7.448055499999999e-11	-0.00569347	-0.00443843	0.00732806	-151.662
11.1695	7.4500565e-11	-0.00270845	0.00692943	0.00728801	100.032
11.1725	7.4520575e-11	0.00743297	-4.76839e-05	0.00739101	-9.144
11.176	7.454392e-11	-0.00185586	-0.00684741	0.00721362	-118.02
11.179	7.456392999999999e-11	-0.00591663	0.00444606	0.00717929	135.51
11.182	7.458394e-11	0.00616458	0.00350191	0.00728801	20.31
11.185	7.460395e-11	0.00182915	-0.00717166	0.00725558	-89.316
11.188	7.462396e-11	-0.00725558	0.000844959	0.0073128	164.628
11.191	7.464397e-11	0.00249101	0.00665668	0.0071812	58.638
11.194	7.466398e-11	0.00591281	-0.00465396	0.00731471	-48.198
11.197	7.468398999999998e-11	-0.0060387	-0.00362588	0.00724986	-159.402
11.2	7.470399999999999e-11	-0.00135804	0.00728419	0.00733379	89.562